9.779411554336547852e-01,9.264705777168273926e-01,6.813725233078002930e-01,2.450980395078659058e-01,1.544117629528045654e-01,1.911764740943908691e-01,1.519607901573181152e-01,8.578431606292724609e-02,5.882352963089942932e-02,4.901960864663124084e-02,4.411764815449714661e-02,6.127450987696647644e-02,6.617647409439086914e-02,6.127450987696647644e-02,4.901960864663124084e-02,7.352941483259201050e-02,6.127450987696647644e-02,6.127450987696647644e-02,6.617647409439086914e-02,6.862745434045791626e-02,9.558823704719543457e-02,7.598039507865905762e-02,9.313725680112838745e-02,1.053921580314636230e-01,1.151960790157318115e-01,1.029411777853965759e-01,1.176470592617988586e-01,1.250000000000000000e-01,1.421568691730499268e-01,1.274509876966476440e-01,1.519607901573181152e-01,1.446078419685363770e-01,1.642156839370727539e-01,1.446078419685363770e-01,1.593137234449386597e-01,1.519607901573181152e-01,1.544117629528045654e-01,1.421568691730499268e-01,1.519607901573181152e-01,1.519607901573181152e-01,1.470588296651840210e-01,1.323529481887817383e-01,1.274509876966476440e-01,1.348039209842681885e-01,1.372549086809158325e-01,1.127450987696647644e-01,1.078431382775306702e-01,1.053921580314636230e-01,1.078431382775306702e-01,9.803921729326248169e-02,9.313725680112838745e-02,1.029411777853965759e-01,1.004901975393295288e-01,1.053921580314636230e-01,1.029411777853965759e-01,1.176470592617988586e-01,1.053921580314636230e-01,1.225490197539329529e-01,1.274509876966476440e-01,1.421568691730499268e-01,1.470588296651840210e-01,1.446078419685363770e-01,1.740196049213409424e-01,2.303921580314636230e-01,2.377450913190841675e-01,2.475490123033523560e-01,2.303921580314636230e-01,2.254901975393295288e-01,1.985294073820114136e-01,1.764705926179885864e-01,1.323529481887817383e-01,1.250000000000000000e-01,1.176470592617988586e-01,1.225490197539329529e-01,1.127450987696647644e-01,1.299019604921340942e-01,1.151960790157318115e-01,8.333333581686019897e-02,0.000000000000000000e+00,6.617647409439086914e-02,3.063725531101226807e-01,6.127451062202453613e-01,8.602941036224365234e-01,1.000000000000000000e+00,9.583333134651184082e-01,7.450980544090270996e-01,3.039215803146362305e-01,1.642156839370727539e-01,2.058823555707931519e-01,1.642156839370727539e-01,1.029411777853965759e-01,9.558823704719543457e-02,9.068627655506134033e-02,1.004901975393295288e-01,9.558823704719543457e-02,9.803921729326248169e-02,9.313725680112838745e-02,9.803921729326248169e-02,9.558823704719543457e-02,1.127450987696647644e-01,0.000000000000000000e+00,0.000000000000000000e+00,0.000000000000000000e+00,0.000000000000000000e+00,0.000000000000000000e+00,0.000000000000000000e+00,0.000000000000000000e+00,0.000000000000000000e+00,0.000000000000000000e+00,0.000000000000000000e+00,0.000000000000000000e+00,0.000000000000000000e+00,0.000000000000000000e+00,0.000000000000000000e+00,0.000000000000000000e+00,0.000000000000000000e+00,0.000000000000000000e+00,0.000000000000000000e+00,0.000000000000000000e+00,0.000000000000000000e+00,0.000000000000000000e+00,0.000000000000000000e+00,0.000000000000000000e+00,0.000000000000000000e+00,0.000000000000000000e+00,0.000000000000000000e+00,0.000000000000000000e+00,0.000000000000000000e+00,0.000000000000000000e+00,0.000000000000000000e+00,0.000000000000000000e+00,0.000000000000000000e+00,0.000000000000000000e+00,0.000000000000000000e+00,0.000000000000000000e+00,0.000000000000000000e+00,0.000000000000000000e+00,0.000000000000000000e+00,0.000000000000000000e+00,0.000000000000000000e+00,0.000000000000000000e+00,0.000000000000000000e+00,0.000000000000000000e+00,0.000000000000000000e+00,0.000000000000000000e+00,0.000000000000000000e+00,0.000000000000000000e+00,0.000000000000000000e+00,0.000000000000000000e+00,0.000000000000000000e+00,0.000000000000000000e+00,0.000000000000000000e+00,0.000000000000000000e+00,0.000000000000000000e+00,0.000000000000000000e+00,0.000000000000000000e+00,0.000000000000000000e+00,0.000000000000000000e+00,0.000000000000000000e+00,0.000000000000000000e+00,0.000000000000000000e+00,0.000000000000000000e+00,0.000000000000000000e+00,0.000000000000000000e+00,0.000000000000000000e+00,0.000000000000000000e+00,0.000000000000000000e+00,0.000000000000000000e+00,0.000000000000000000e+00,0.000000000000000000e+00,0.000000000000000000e+00,0.000000000000000000e+00,0.000000000000000000e+00,0.000000000000000000e+00,0.000000000000000000e+00,0.000000000000000000e+00,0.000000000000000000e+00,0.000000000000000000e+00,0.000000000000000000e+00,0.000000000000000000e+00,0.000000000000000000e+00,0.000000000000000000e+00,0.000000000000000000e+00,0.000000000000000000e+00,0.000000000000000000e+00,0.000000000000000000e+00,0.000000000000000000e+00,0.000000000000000000e+00
9.601139426231384277e-01,8.632478713989257812e-01,4.615384638309478760e-01,1.965811997652053833e-01,9.401709586381912231e-02,1.253561228513717651e-01,9.971509873867034912e-02,8.831908553838729858e-02,7.407407462596893311e-02,8.262108266353607178e-02,7.407407462596893311e-02,6.267806142568588257e-02,6.552706658840179443e-02,6.552706658840179443e-02,6.267806142568588257e-02,7.692307978868484497e-02,7.122506946325302124e-02,8.262108266353607178e-02,9.116809070110321045e-02,9.686609357595443726e-02,8.262108266353607178e-02,8.262108266353607178e-02,9.116809070110321045e-02,1.054131090641021729e-01,1.225071251392364502e-01,1.481481492519378662e-01,1.823361814022064209e-01,1.937321871519088745e-01,2.136752158403396606e-01,2.079772055149078369e-01,2.222222238779067993e-01,2.535612583160400391e-01,2.706552743911743164e-01,2.877492904663085938e-01,2.849002778530120850e-01,2.934472858905792236e-01,2.564102709293365479e-01,2.478632479906082153e-01,1.880341917276382446e-01,1.452991515398025513e-01,1.082621067762374878e-01,8.262108266353607178e-02,7.977207750082015991e-02,7.407407462596893311e-02,1.424501463770866394e-02,1.139601133763790131e-02,6.267806142568588257e-02,5.128205195069313049e-02,5.698005855083465576e-02,4.843304678797721863e-02,2.849002927541732788e-02,3.133903071284294128e-02,7.692307978868484497e-02,2.564102597534656525e-02,2.849002927541732788e-02,3.703703731298446655e-02,9.401709586381912231e-02,8.547008782625198364e-02,3.988603875041007996e-02,5.982905998826026917e-02,7.407407462596893311e-02,7.977207750082015991e-02,9.116809070110321045e-02,9.971509873867034912e-02,1.082621067762374878e-01,8.831908553838729858e-02,9.116809070110321045e-02,6.552706658840179443e-02,8.547008782625198364e-02,8.831908553838729858e-02,7.692307978868484497e-02,8.262108266353607178e-02,9.686609357595443726e-02,9.971509873867034912e-02,1.339031308889389038e-01,1.025641039013862610e-01,3.988603875041007996e-02,6.552706658840179443e-02,7.407407462596893311e-02,8.262108266353607178e-02,8.547008782625198364e-02,5.698005855083465576e-02,4.558404535055160522e-02,1.025641039013862610e-01,3.988603875041007996e-02,1.139601133763790131e-02,1.709401793777942657e-02,3.133903071284294128e-02,5.698005668818950653e-03,8.547008968889713287e-03,3.133903071284294128e-02,5.128205195069313049e-02,5.698005855083465576e-02,8.831908553838729858e-02,6.552706658840179443e-02,1.139601133763790131e-02,5.698005855083465576e-02,3.988603875041007996e-02,3.988603875041007996e-02,2.564102597534656525e-02,2.849002834409475327e-03,1.994301937520503998e-02,2.564102597534656525e-02,1.139601133763790131e-02,2.849002927541732788e-02,1.994301937520503998e-02,2.279202267527580261e-02,3.418803587555885315e-02,1.424501463770866394e-02,5.128205195069313049e-02,6.837607175111770630e-02,1.396011412143707275e-01,2.877492904663085938e-01,5.270655155181884766e-01,7.777777910232543945e-01,1.000000000000000000e+00,8.888888955116271973e-01,4.928774833679199219e-01,1.908831894397735596e-01,8.831908553838729858e-02,6.267806142568588257e-02,3.418803587555885315e-02,0.000000000000000000e+00,3.418803587555885315e-02,1.709401793777942657e-02,2.849002834409475327e-03,0.000000000000000000e+00,4.843304678797721863e-02,4.843304678797721863e-02,5.413105338811874390e-02,4.273504391312599182e-02,5.413105338811874390e-02,5.982905998826026917e-02,6.267806142568588257e-02,7.122506946325302124e-02,7.692307978868484497e-02,9.971509873867034912e-02,0.000000000000000000e+00,0.000000000000000000e+00,0.000000000000000000e+00,0.000000000000000000e+00,0.000000000000000000e+00,0.000000000000000000e+00,0.000000000000000000e+00,0.000000000000000000e+00,0.000000000000000000e+00,0.000000000000000000e+00,0.000000000000000000e+00,0.000000000000000000e+00,0.000000000000000000e+00,0.000000000000000000e+00,0.000000000000000000e+00,0.000000000000000000e+00,0.000000000000000000e+00,0.000000000000000000e+00,0.000000000000000000e+00,0.000000000000000000e+00,0.000000000000000000e+00,0.000000000000000000e+00,0.000000000000000000e+00,0.000000000000000000e+00,0.000000000000000000e+00,0.000000000000000000e+00,0.000000000000000000e+00,0.000000000000000000e+00,0.000000000000000000e+00,0.000000000000000000e+00,0.000000000000000000e+00,0.000000000000000000e+00,0.000000000000000000e+00,0.000000000000000000e+00,0.000000000000000000e+00,0.000000000000000000e+00,0.000000000000000000e+00,0.000000000000000000e+00,0.000000000000000000e+00,0.000000000000000000e+00,0.000000000000000000e+00,0.000000000000000000e+00,0.000000000000000000e+00,0.000000000000000000e+00,0.000000000000000000e+00,0.000000000000000000e+00,0.000000000000000000e+00,0.000000000000000000e+00,0.000000000000000000e+00,0.000000000000000000e+00,0.000000000000000000e+00
1.000000000000000000e+00,6.594594717025756836e-01,1.864864826202392578e-01,7.027027010917663574e-02,7.027027010917663574e-02,5.945945903658866882e-02,5.675675719976425171e-02,4.324324429035186768e-02,5.405405536293983459e-02,4.594594612717628479e-02,5.675675719976425171e-02,4.324324429035186768e-02,6.756756454706192017e-02,6.216216087341308594e-02,7.837837934494018555e-02,7.297297567129135132e-02,8.648648858070373535e-02,8.108107745647430420e-02,1.081081107258796692e-01,1.108108088374137878e-01,1.351351290941238403e-01,1.351351290941238403e-01,1.702702641487121582e-01,1.837837845087051392e-01,2.162162214517593384e-01,2.378378361463546753e-01,2.702702581882476807e-01,2.864864766597747803e-01,3.162162303924560547e-01,3.189189136028289795e-01,3.324324190616607666e-01,2.972972989082336426e-01,2.675675749778747559e-01,2.162162214517593384e-01,1.891891956329345703e-01,1.324324309825897217e-01,1.189189180731773376e-01,6.486486643552780151e-02,6.486486643552780151e-02,4.324324429035186768e-02,5.405405536293983459e-02,3.783783689141273499e-02,4.324324429035186768e-02,2.162162214517593384e-02,4.594594612717628479e-02,3.513513505458831787e-02,5.675675719976425171e-02,3.513513505458831787e-02,3.783783689141273499e-02,3.243243321776390076e-02,4.324324429035186768e-02,3.783783689141273499e-02,5.135134980082511902e-02,2.972972951829433441e-02,4.864864796400070190e-02,2.972972951829433441e-02,5.675675719976425171e-02,5.135134980082511902e-02,7.837837934494018555e-02,6.486486643552780151e-02,9.459459781646728516e-02,9.729729592800140381e-02,1.162162125110626221e-01,9.459459781646728516e-02,9.189189225435256958e-02,6.486486643552780151e-02,6.756756454706192017e-02,4.054053872823715210e-02,4.864864796400070190e-02,1.891891844570636749e-02,2.162162214517593384e-02,8.108108304440975189e-03,2.972972951829433441e-02,1.081081107258796692e-02,2.162162214517593384e-02,5.405405536293983459e-03,3.243243321776390076e-02,1.891891844570636749e-02,2.162162214517593384e-02,4.054053872823715210e-02,2.405405342578887939e-01,5.891891717910766602e-01,9.648648500442504883e-01,5.837838053703308105e-01,1.216216236352920532e-01,0.000000000000000000e+00,3.513513505458831787e-02,3.513513505458831787e-02,2.702702768146991730e-02,2.162162214517593384e-02,2.972972951829433441e-02,1.081081107258796692e-02,3.243243321776390076e-02,2.162162214517593384e-02,5.135134980082511902e-02,0.000000000000000000e+00,0.000000000000000000e+00,0.000000000000000000e+00,0.000000000000000000e+00,0.000000000000000000e+00,0.000000000000000000e+00,0.000000000000000000e+00,0.000000000000000000e+00,0.000000000000000000e+00,0.000000000000000000e+00,0.000000000000000000e+00,0.000000000000000000e+00,0.000000000000000000e+00,0.000000000000000000e+00,0.000000000000000000e+00,0.000000000000000000e+00,0.000000000000000000e+00,0.000000000000000000e+00,0.000000000000000000e+00,0.000000000000000000e+00,0.000000000000000000e+00,0.000000000000000000e+00,0.000000000000000000e+00,0.000000000000000000e+00,0.000000000000000000e+00,0.000000000000000000e+00,0.000000000000000000e+00,0.000000000000000000e+00,0.000000000000000000e+00,0.000000000000000000e+00,0.000000000000000000e+00,0.000000000000000000e+00,0.000000000000000000e+00,0.000000000000000000e+00,0.000000000000000000e+00,0.000000000000000000e+00,0.000000000000000000e+00,0.000000000000000000e+00,0.000000000000000000e+00,0.000000000000000000e+00,0.000000000000000000e+00,0.000000000000000000e+00,0.000000000000000000e+00,0.000000000000000000e+00,0.000000000000000000e+00,0.000000000000000000e+00,0.000000000000000000e+00,0.000000000000000000e+00,0.000000000000000000e+00,0.000000000000000000e+00,0.000000000000000000e+00,0.000000000000000000e+00,0.000000000000000000e+00,0.000000000000000000e+00,0.000000000000000000e+00,0.000000000000000000e+00,0.000000000000000000e+00,0.000000000000000000e+00,0.000000000000000000e+00,0.000000000000000000e+00,0.000000000000000000e+00,0.000000000000000000e+00,0.000000000000000000e+00,0.000000000000000000e+00,0.000000000000000000e+00,0.000000000000000000e+00,0.000000000000000000e+00,0.000000000000000000e+00,0.000000000000000000e+00,0.000000000000000000e+00,0.000000000000000000e+00,0.000000000000000000e+00,0.000000000000000000e+00,0.000000000000000000e+00,0.000000000000000000e+00,0.000000000000000000e+00,0.000000000000000000e+00,0.000000000000000000e+00,0.000000000000000000e+00,0.000000000000000000e+00,0.000000000000000000e+00,0.000000000000000000e+00,0.000000000000000000e+00,0.000000000000000000e+00,0.000000000000000000e+00,0.000000000000000000e+00,0.000000000000000000e+00,0.000000000000000000e+00,0.000000000000000000e+00,0.000000000000000000e+00,0.000000000000000000e+00,0.000000000000000000e+00,0.000000000000000000e+00
9.254143834114074707e-01,6.657458543777465820e-01,5.414364933967590332e-01,2.762430906295776367e-01,1.961326003074645996e-01,7.734806835651397705e-02,7.182320207357406616e-02,6.077348068356513977e-02,6.629834324121475220e-02,5.801105126738548279e-02,6.353591382503509521e-02,8.287292718887329102e-02,8.563535660505294800e-02,9.392265230417251587e-02,1.132596656680107117e-01,1.243093907833099365e-01,1.408839821815490723e-01,1.325966864824295044e-01,1.408839821815490723e-01,9.116022288799285889e-02,8.563535660505294800e-02,7.458563894033432007e-02,7.182320207357406616e-02,8.011049777269363403e-02,9.668508172035217285e-02,1.187845319509506226e-01,1.381215453147888184e-01,1.408839821815490723e-01,1.381215453147888184e-01,1.464088410139083862e-01,1.104972362518310547e-01,1.022099480032920837e-01,6.077348068356513977e-02,2.762430906295776367e-02,3.867403417825698853e-02,1.381215453147888184e-02,1.104972418397665024e-02,1.381215453147888184e-02,3.314917162060737610e-02,5.524862091988325119e-03,0.000000000000000000e+00,5.524862091988325119e-03,2.209944836795330048e-02,6.629834324121475220e-02,8.011049777269363403e-02,5.801105126738548279e-02,6.077348068356513977e-02,5.801105126738548279e-02,9.944751113653182983e-02,1.243093907833099365e-01,1.740331500768661499e-01,1.961326003074645996e-01,2.292817682027816772e-01,2.403314858675003052e-01,2.651933729648590088e-01,2.375690639019012451e-01,2.182320505380630493e-01,1.988950222730636597e-01,1.988950222730636597e-01,1.988950222730636597e-01,1.712707132101058960e-01,1.629834324121475220e-01,1.850828677415847778e-01,1.961326003074645996e-01,1.712707132101058960e-01,1.408839821815490723e-01,8.563535660505294800e-02,0.000000000000000000e+00,5.524862091988325119e-03,2.762431045994162560e-03,3.591160103678703308e-02,4.972375556826591492e-02,6.353591382503509521e-02,1.104972362518310547e-01,1.215469613671302795e-01,1.381215453147888184e-01,1.408839821815490723e-01,1.685082912445068359e-01,3.895027637481689453e-01,7.651933431625366211e-01,1.000000000000000000e+00,8.535911440849304199e-01,6.685082912445068359e-01,4.585635364055633545e-01,3.204419910907745361e-01,1.933701634407043457e-01,1.215469613671302795e-01,8.011049777269363403e-02,8.287292718887329102e-02,7.182320207357406616e-02,5.801105126738548279e-02,6.629834324121475220e-02,8.839779347181320190e-02,9.668508172035217285e-02,9.944751113653182983e-02,1.104972362518310547e-01,0.000000000000000000e+00,0.000000000000000000e+00,0.000000000000000000e+00,0.000000000000000000e+00,0.000000000000000000e+00,0.000000000000000000e+00,0.000000000000000000e+00,0.000000000000000000e+00,0.000000000000000000e+00,0.000000000000000000e+00,0.000000000000000000e+00,0.000000000000000000e+00,0.000000000000000000e+00,0.000000000000000000e+00,0.000000000000000000e+00,0.000000000000000000e+00,0.000000000000000000e+00,0.000000000000000000e+00,0.000000000000000000e+00,0.000000000000000000e+00,0.000000000000000000e+00,0.000000000000000000e+00,0.000000000000000000e+00,0.000000000000000000e+00,0.000000000000000000e+00,0.000000000000000000e+00,0.000000000000000000e+00,0.000000000000000000e+00,0.000000000000000000e+00,0.000000000000000000e+00,0.000000000000000000e+00,0.000000000000000000e+00,0.000000000000000000e+00,0.000000000000000000e+00,0.000000000000000000e+00,0.000000000000000000e+00,0.000000000000000000e+00,0.000000000000000000e+00,0.000000000000000000e+00,0.000000000000000000e+00,0.000000000000000000e+00,0.000000000000000000e+00,0.000000000000000000e+00,0.000000000000000000e+00,0.000000000000000000e+00,0.000000000000000000e+00,0.000000000000000000e+00,0.000000000000000000e+00,0.000000000000000000e+00,0.000000000000000000e+00,0.000000000000000000e+00,0.000000000000000000e+00,0.000000000000000000e+00,0.000000000000000000e+00,0.000000000000000000e+00,0.000000000000000000e+00,0.000000000000000000e+00,0.000000000000000000e+00,0.000000000000000000e+00,0.000000000000000000e+00,0.000000000000000000e+00,0.000000000000000000e+00,0.000000000000000000e+00,0.000000000000000000e+00,0.000000000000000000e+00,0.000000000000000000e+00,0.000000000000000000e+00,0.000000000000000000e+00,0.000000000000000000e+00,0.000000000000000000e+00,0.000000000000000000e+00,0.000000000000000000e+00,0.000000000000000000e+00,0.000000000000000000e+00,0.000000000000000000e+00,0.000000000000000000e+00,0.000000000000000000e+00,0.000000000000000000e+00,0.000000000000000000e+00,0.000000000000000000e+00,0.000000000000000000e+00,0.000000000000000000e+00,0.000000000000000000e+00,0.000000000000000000e+00,0.000000000000000000e+00,0.000000000000000000e+00,0.000000000000000000e+00,0.000000000000000000e+00,0.000000000000000000e+00,0.000000000000000000e+00,0.000000000000000000e+00,0.000000000000000000e+00
9.671361446380615234e-01,1.000000000000000000e+00,8.309859037399291992e-01,5.868544578552246094e-01,3.568075001239776611e-01,2.488262951374053955e-01,1.455399096012115479e-01,8.920187503099441528e-02,1.173708885908126831e-01,1.502347439527511597e-01,1.314553916454315186e-01,1.220657303929328918e-01,1.408450752496719360e-01,1.596244126558303833e-01,1.502347439527511597e-01,1.455399096012115479e-01,1.361502408981323242e-01,1.690140813589096069e-01,1.784037500619888306e-01,1.737089157104492188e-01,1.830985844135284424e-01,2.018779367208480835e-01,1.877934336662292480e-01,1.643192470073699951e-01,1.877934336662292480e-01,2.159624397754669189e-01,2.159624397754669189e-01,2.018779367208480835e-01,2.112676054239273071e-01,2.300469428300857544e-01,2.159624397754669189e-01,2.300469428300857544e-01,2.394366264343261719e-01,2.676056325435638428e-01,2.535211145877838135e-01,2.300469428300857544e-01,2.206572741270065308e-01,2.253521084785461426e-01,2.112676054239273071e-01,1.737089157104492188e-01,1.502347439527511597e-01,1.408450752496719360e-01,1.079812198877334595e-01,7.511737197637557983e-02,6.103286519646644592e-02,7.042253762483596802e-02,6.103286519646644592e-02,5.164319276809692383e-02,3.286384791135787964e-02,7.042253762483596802e-02,4.225352033972740173e-02,1.877934299409389496e-02,3.286384791135787964e-02,3.286384791135787964e-02,3.286384791135787964e-02,2.816901355981826782e-02,1.877934299409389496e-02,1.877934299409389496e-02,2.347417920827865601e-02,0.000000000000000000e+00,9.389671497046947479e-03,1.408450677990913391e-02,2.816901355981826782e-02,0.000000000000000000e+00,0.000000000000000000e+00,4.225352033972740173e-02,2.347417920827865601e-02,9.389671497046947479e-03,2.347417920827865601e-02,2.816901355981826782e-02,3.755868598818778992e-02,1.877934299409389496e-02,1.408450677990913391e-02,3.755868598818778992e-02,4.225352033972740173e-02,2.347417920827865601e-02,1.408450677990913391e-02,3.755868598818778992e-02,4.225352033972740173e-02,1.408450677990913391e-02,3.755868598818778992e-02,5.164319276809692383e-02,4.694835841655731201e-02,3.755868598818778992e-02,3.755868598818778992e-02,5.633802711963653564e-02,5.633802711963653564e-02,3.286384791135787964e-02,3.286384791135787964e-02,6.572769582271575928e-02,5.633802711963653564e-02,2.816901355981826782e-02,4.694835841655731201e-02,5.633802711963653564e-02,6.572769582271575928e-02,4.225352033972740173e-02,6.103286519646644592e-02,1.173708885908126831e-01,1.220657303929328918e-01,9.859155118465423584e-02,9.859155118465423584e-02,1.126760542392730713e-01,1.079812198877334595e-01,9.389671683311462402e-02,1.032863855361938477e-01,1.079812198877334595e-01,7.511737197637557983e-02,4.225352033972740173e-02,4.694835841655731201e-02,6.572769582271575928e-02,7.042253762483596802e-02,6.572769582271575928e-02,1.032863855361938477e-01,2.347417771816253662e-01,4.976525902748107910e-01,7.464788556098937988e-01,8.826290965080261230e-01,9.530516266822814941e-01,9.061033129692077637e-01,6.807511448860168457e-01,4.319248795509338379e-01,2.488262951374053955e-01,1.455399096012115479e-01,6.103286519646644592e-02,6.572769582271575928e-02,1.032863855361938477e-01,1.032863855361938477e-01,8.450704067945480347e-02,9.389671683311462402e-02,1.173708885908126831e-01,1.220657303929328918e-01,1.079812198877334595e-01,1.126760542392730713e-01,1.455399096012115479e-01,1.549295783042907715e-01,1.173708885908126831e-01,1.408450752496719360e-01,1.643192470073699951e-01,1.690140813589096069e-01,1.643192470073699951e-01,0.000000000000000000e+00,0.000000000000000000e+00,0.000000000000000000e+00,0.000000000000000000e+00,0.000000000000000000e+00,0.000000000000000000e+00,0.000000000000000000e+00,0.000000000000000000e+00,0.000000000000000000e+00,0.000000000000000000e+00,0.000000000000000000e+00,0.000000000000000000e+00,0.000000000000000000e+00,0.000000000000000000e+00,0.000000000000000000e+00,0.000000000000000000e+00,0.000000000000000000e+00,0.000000000000000000e+00,0.000000000000000000e+00,0.000000000000000000e+00,0.000000000000000000e+00,0.000000000000000000e+00,0.000000000000000000e+00,0.000000000000000000e+00,0.000000000000000000e+00,0.000000000000000000e+00,0.000000000000000000e+00,0.000000000000000000e+00,0.000000000000000000e+00,0.000000000000000000e+00,0.000000000000000000e+00,0.000000000000000000e+00,0.000000000000000000e+00,0.000000000000000000e+00,0.000000000000000000e+00,0.000000000000000000e+00,0.000000000000000000e+00,0.000000000000000000e+00,0.000000000000000000e+00,0.000000000000000000e+00,0.000000000000000000e+00,0.000000000000000000e+00,0.000000000000000000e+00,0.000000000000000000e+00,0.000000000000000000e+00,0.000000000000000000e+00,0.000000000000000000e+00,0.000000000000000000e+00
9.274611473083496094e-01,1.000000000000000000e+00,6.269429922103881836e-01,1.934369653463363647e-01,9.499136358499526978e-02,7.253886014223098755e-02,4.317789152264595032e-02,5.354058742523193359e-02,9.326425194740295410e-02,1.899827271699905396e-01,3.281520009040832520e-01,4.179620146751403809e-01,4.265975952148437500e-01,4.421416223049163818e-01,4.335060417652130127e-01,4.352331459522247314e-01,4.490500986576080322e-01,4.352331459522247314e-01,4.024179577827453613e-01,4.041450917720794678e-01,4.058721959590911865e-01,3.903281390666961670e-01,3.696027696132659912e-01,3.730570077896118164e-01,3.678756356239318848e-01,3.488773703575134277e-01,3.177892863750457764e-01,3.160621821880340576e-01,3.195164203643798828e-01,3.229706287384033203e-01,3.246977627277374268e-01,3.367875516414642334e-01,3.592400550842285156e-01,3.644214272499084473e-01,3.799654543399810791e-01,4.075993001461029053e-01,4.179620146751403809e-01,4.300518035888671875e-01,4.421416223049163818e-01,4.525043070316314697e-01,4.611398875713348389e-01,4.766839444637298584e-01,4.663212299346923828e-01,4.766839444637298584e-01,4.853195250034332275e-01,4.732297062873840332e-01,4.455958604812622070e-01,4.680483639240264893e-01,4.749568104743957520e-01,4.576856791973114014e-01,4.542314410209655762e-01,4.663212299346923828e-01,4.663212299346923828e-01,4.576856791973114014e-01,4.525043070316314697e-01,4.576856791973114014e-01,4.680483639240264893e-01,4.542314410209655762e-01,4.525043070316314697e-01,4.611398875713348389e-01,4.732297062873840332e-01,4.628670215606689453e-01,4.628670215606689453e-01,4.697754681110382080e-01,4.732297062873840332e-01,4.663212299346923828e-01,4.594127833843231201e-01,4.697754681110382080e-01,4.801381826400756836e-01,4.835923910140991211e-01,4.853195250034332275e-01,4.991364479064941406e-01,5.164076089859008789e-01,5.008635520935058594e-01,4.956822097301483154e-01,5.457685589790344238e-01,5.613126158714294434e-01,5.302245020866394043e-01,5.146805047988891602e-01,5.423143506050109863e-01,5.630397200584411621e-01,5.405872464179992676e-01,4.956822097301483154e-01,4.974093139171600342e-01,4.801381826400756836e-01,4.594127833843231201e-01,4.594127833843231201e-01,4.576856791973114014e-01,4.473229646682739258e-01,4.404145181179046631e-01,4.473229646682739258e-01,4.542314410209655762e-01,4.559585452079772949e-01,4.576856791973114014e-01,4.542314410209655762e-01,4.490500986576080322e-01,4.525043070316314697e-01,5.578583478927612305e-01,7.530224323272705078e-01,7.892918586730957031e-01,8.739205598831176758e-01,9.602763652801513672e-01,5.371329784393310547e-01,1.139896363019943237e-01,5.008635669946670532e-02,1.899827271699905396e-02,0.000000000000000000e+00,8.635578677058219910e-03,5.008635669946670532e-02,1.157167553901672363e-01,2.556131184101104736e-01,3.730570077896118164e-01,3.989637196063995361e-01,4.024179577827453613e-01,4.179620146751403809e-01,4.248704612255096436e-01,4.214162230491638184e-01,4.162348806858062744e-01,4.145077764987945557e-01,4.196891188621520996e-01,0.000000000000000000e+00,0.000000000000000000e+00,0.000000000000000000e+00,0.000000000000000000e+00,0.000000000000000000e+00,0.000000000000000000e+00,0.000000000000000000e+00,0.000000000000000000e+00,0.000000000000000000e+00,0.000000000000000000e+00,0.000000000000000000e+00,0.000000000000000000e+00,0.000000000000000000e+00,0.000000000000000000e+00,0.000000000000000000e+00,0.000000000000000000e+00,0.000000000000000000e+00,0.000000000000000000e+00,0.000000000000000000e+00,0.000000000000000000e+00,0.000000000000000000e+00,0.000000000000000000e+00,0.000000000000000000e+00,0.000000000000000000e+00,0.000000000000000000e+00,0.000000000000000000e+00,0.000000000000000000e+00,0.000000000000000000e+00,0.000000000000000000e+00,0.000000000000000000e+00,0.000000000000000000e+00,0.000000000000000000e+00,0.000000000000000000e+00,0.000000000000000000e+00,0.000000000000000000e+00,0.000000000000000000e+00,0.000000000000000000e+00,0.000000000000000000e+00,0.000000000000000000e+00,0.000000000000000000e+00,0.000000000000000000e+00,0.000000000000000000e+00,0.000000000000000000e+00,0.000000000000000000e+00,0.000000000000000000e+00,0.000000000000000000e+00,0.000000000000000000e+00,0.000000000000000000e+00,0.000000000000000000e+00,0.000000000000000000e+00,0.000000000000000000e+00,0.000000000000000000e+00,0.000000000000000000e+00,0.000000000000000000e+00,0.000000000000000000e+00,0.000000000000000000e+00,0.000000000000000000e+00,0.000000000000000000e+00,0.000000000000000000e+00,0.000000000000000000e+00,0.000000000000000000e+00,0.000000000000000000e+00,0.000000000000000000e+00,0.000000000000000000e+00,0.000000000000000000e+00,0.000000000000000000e+00,0.000000000000000000e+00,0.000000000000000000e+00
4.236111044883728027e-01,7.916666865348815918e-01,1.000000000000000000e+00,2.569444477558135986e-01,0.000000000000000000e+00,2.777777910232543945e-01,4.652777910232543945e-01,5.208333134651184082e-01,4.722222089767456055e-01,5.555555820465087891e-01,5.347222089767456055e-01,5.902777910232543945e-01,5.763888955116271973e-01,5.972222089767456055e-01,5.763888955116271973e-01,5.972222089767456055e-01,5.763888955116271973e-01,6.250000000000000000e-01,6.111111044883728027e-01,6.527777910232543945e-01,6.250000000000000000e-01,6.597222089767456055e-01,6.527777910232543945e-01,6.875000000000000000e-01,6.666666865348815918e-01,7.152777910232543945e-01,7.222222089767456055e-01,7.638888955116271973e-01,7.708333134651184082e-01,8.263888955116271973e-01,8.333333134651184082e-01,8.958333134651184082e-01,9.236111044883728027e-01,9.583333134651184082e-01,9.444444179534912109e-01,9.652777910232543945e-01,9.027777910232543945e-01,8.750000000000000000e-01,7.430555820465087891e-01,7.500000000000000000e-01,6.805555820465087891e-01,6.805555820465087891e-01,6.319444179534912109e-01,6.319444179534912109e-01,6.111111044883728027e-01,6.180555820465087891e-01,6.111111044883728027e-01,6.319444179534912109e-01,5.833333134651184082e-01,5.625000000000000000e-01,5.486111044883728027e-01,5.763888955116271973e-01,5.555555820465087891e-01,5.833333134651184082e-01,5.625000000000000000e-01,5.972222089767456055e-01,5.555555820465087891e-01,6.111111044883728027e-01,5.833333134651184082e-01,6.041666865348815918e-01,5.763888955116271973e-01,5.833333134651184082e-01,5.069444179534912109e-01,5.763888955116271973e-01,5.347222089767456055e-01,5.902777910232543945e-01,5.347222089767456055e-01,5.486111044883728027e-01,5.277777910232543945e-01,5.277777910232543945e-01,5.138888955116271973e-01,5.416666865348815918e-01,4.861111044883728027e-01,5.416666865348815918e-01,5.000000000000000000e-01,5.416666865348815918e-01,5.069444179534912109e-01,5.277777910232543945e-01,4.930555522441864014e-01,5.277777910232543945e-01,5.000000000000000000e-01,5.277777910232543945e-01,5.069444179534912109e-01,5.347222089767456055e-01,5.555555820465087891e-01,5.833333134651184082e-01,5.625000000000000000e-01,6.041666865348815918e-01,5.625000000000000000e-01,5.138888955116271973e-01,4.791666567325592041e-01,5.347222089767456055e-01,4.861111044883728027e-01,5.694444179534912109e-01,4.861111044883728027e-01,4.444444477558135986e-01,4.166666567325592041e-01,4.861111044883728027e-01,4.305555522441864014e-01,4.513888955116271973e-01,4.236111044883728027e-01,4.791666567325592041e-01,4.375000000000000000e-01,4.444444477558135986e-01,4.166666567325592041e-01,4.930555522441864014e-01,5.208333134651184082e-01,6.041666865348815918e-01,4.791666567325592041e-01,4.236111044883728027e-01,2.291666716337203979e-01,5.069444179534912109e-01,7.013888955116271973e-01,1.180555522441864014e-01,1.388888899236917496e-02,2.708333432674407959e-01,3.958333432674407959e-01,4.513888955116271973e-01,4.444444477558135986e-01,5.069444179534912109e-01,4.652777910232543945e-01,4.861111044883728027e-01,4.722222089767456055e-01,5.347222089767456055e-01,4.930555522441864014e-01,5.416666865348815918e-01,4.930555522441864014e-01,5.555555820465087891e-01,5.208333134651184082e-01,5.625000000000000000e-01,5.277777910232543945e-01,0.000000000000000000e+00,0.000000000000000000e+00,0.000000000000000000e+00,0.000000000000000000e+00,0.000000000000000000e+00,0.000000000000000000e+00,0.000000000000000000e+00,0.000000000000000000e+00,0.000000000000000000e+00,0.000000000000000000e+00,0.000000000000000000e+00,0.000000000000000000e+00,0.000000000000000000e+00,0.000000000000000000e+00,0.000000000000000000e+00,0.000000000000000000e+00,0.000000000000000000e+00,0.000000000000000000e+00,0.000000000000000000e+00,0.000000000000000000e+00,0.000000000000000000e+00,0.000000000000000000e+00,0.000000000000000000e+00,0.000000000000000000e+00,0.000000000000000000e+00,0.000000000000000000e+00,0.000000000000000000e+00,0.000000000000000000e+00,0.000000000000000000e+00,0.000000000000000000e+00,0.000000000000000000e+00,0.000000000000000000e+00,0.000000000000000000e+00,0.000000000000000000e+00,0.000000000000000000e+00,0.000000000000000000e+00,0.000000000000000000e+00,0.000000000000000000e+00,0.000000000000000000e+00,0.000000000000000000e+00,0.000000000000000000e+00,0.000000000000000000e+00,0.000000000000000000e+00,0.000000000000000000e+00,0.000000000000000000e+00,0.000000000000000000e+00,0.000000000000000000e+00,0.000000000000000000e+00,0.000000000000000000e+00,0.000000000000000000e+00,0.000000000000000000e+00,0.000000000000000000e+00,0.000000000000000000e+00,0.000000000000000000e+00,0.000000000000000000e+00,0.000000000000000000e+00,0.000000000000000000e+00
7.168141603469848633e-01,5.398229956626892090e-01,2.831858396530151367e-01,1.297935098409652710e-01,6.489675492048263550e-02,7.669616490602493286e-02,2.654867246747016907e-02,3.244837746024131775e-02,8.849557489156723022e-03,4.424778744578361511e-02,2.064896747469902039e-02,0.000000000000000000e+00,2.949852496385574341e-03,2.654867246747016907e-02,6.784661114215850830e-02,8.259586989879608154e-02,1.386430710554122925e-01,1.651917397975921631e-01,2.123893797397613525e-01,2.212389409542083740e-01,2.448377609252929688e-01,2.418879121541976929e-01,2.595870196819305420e-01,2.831858396530151367e-01,2.625368833541870117e-01,2.743362784385681152e-01,2.654867172241210938e-01,2.802359759807586670e-01,2.566371560096740723e-01,2.300885021686553955e-01,2.123893797397613525e-01,2.271386384963989258e-01,2.035398185253143311e-01,2.359881997108459473e-01,1.976401209831237793e-01,2.182890921831130981e-01,2.094395309686660767e-01,2.241887897253036499e-01,2.094395309686660767e-01,2.212389409542083740e-01,1.858407109975814819e-01,2.330383509397506714e-01,2.094395309686660767e-01,2.271386384963989258e-01,2.153392285108566284e-01,2.330383509397506714e-01,2.035398185253143311e-01,1.917404085397720337e-01,2.035398185253143311e-01,2.005899697542190552e-01,1.887905597686767578e-01,2.713864445686340332e-01,2.241887897253036499e-01,2.300885021686553955e-01,2.418879121541976929e-01,2.389380484819412231e-01,2.241887897253036499e-01,2.241887897253036499e-01,2.448377609252929688e-01,2.359881997108459473e-01,2.064896821975708008e-01,2.359881997108459473e-01,2.094395309686660767e-01,2.035398185253143311e-01,2.035398185253143311e-01,2.153392285108566284e-01,2.005899697542190552e-01,1.976401209831237793e-01,2.035398185253143311e-01,2.241887897253036499e-01,2.064896821975708008e-01,2.831858396530151367e-01,3.864306807518005371e-01,5.191740393638610840e-01,6.194690465927124023e-01,8.407079577445983887e-01,8.938053250312805176e-01,1.000000000000000000e+00,9.233038425445556641e-01,7.109144330024719238e-01,3.333333432674407959e-01,2.300885021686553955e-01,1.858407109975814819e-01,1.592920422554016113e-01,1.386430710554122925e-01,9.734513610601425171e-02,6.194690242409706116e-02,0.000000000000000000e+00,0.000000000000000000e+00,0.000000000000000000e+00,0.000000000000000000e+00,0.000000000000000000e+00,0.000000000000000000e+00,0.000000000000000000e+00,0.000000000000000000e+00,0.000000000000000000e+00,0.000000000000000000e+00,0.000000000000000000e+00,0.000000000000000000e+00,0.000000000000000000e+00,0.000000000000000000e+00,0.000000000000000000e+00,0.000000000000000000e+00,0.000000000000000000e+00,0.000000000000000000e+00,0.000000000000000000e+00,0.000000000000000000e+00,0.000000000000000000e+00,0.000000000000000000e+00,0.000000000000000000e+00,0.000000000000000000e+00,0.000000000000000000e+00,0.000000000000000000e+00,0.000000000000000000e+00,0.000000000000000000e+00,0.000000000000000000e+00,0.000000000000000000e+00,0.000000000000000000e+00,0.000000000000000000e+00,0.000000000000000000e+00,0.000000000000000000e+00,0.000000000000000000e+00,0.000000000000000000e+00,0.000000000000000000e+00,0.000000000000000000e+00,0.000000000000000000e+00,0.000000000000000000e+00,0.000000000000000000e+00,0.000000000000000000e+00,0.000000000000000000e+00,0.000000000000000000e+00,0.000000000000000000e+00,0.000000000000000000e+00,0.000000000000000000e+00,0.000000000000000000e+00,0.000000000000000000e+00,0.000000000000000000e+00,0.000000000000000000e+00,0.000000000000000000e+00,0.000000000000000000e+00,0.000000000000000000e+00,0.000000000000000000e+00,0.000000000000000000e+00,0.000000000000000000e+00,0.000000000000000000e+00,0.000000000000000000e+00,0.000000000000000000e+00,0.000000000000000000e+00,0.000000000000000000e+00,0.000000000000000000e+00,0.000000000000000000e+00,0.000000000000000000e+00,0.000000000000000000e+00,0.000000000000000000e+00,0.000000000000000000e+00,0.000000000000000000e+00,0.000000000000000000e+00,0.000000000000000000e+00,0.000000000000000000e+00,0.000000000000000000e+00,0.000000000000000000e+00,0.000000000000000000e+00,0.000000000000000000e+00,0.000000000000000000e+00,0.000000000000000000e+00,0.000000000000000000e+00,0.000000000000000000e+00,0.000000000000000000e+00,0.000000000000000000e+00,0.000000000000000000e+00,0.000000000000000000e+00,0.000000000000000000e+00,0.000000000000000000e+00,0.000000000000000000e+00,0.000000000000000000e+00,0.000000000000000000e+00,0.000000000000000000e+00,0.000000000000000000e+00,0.000000000000000000e+00,0.000000000000000000e+00,0.000000000000000000e+00,0.000000000000000000e+00,0.000000000000000000e+00,0.000000000000000000e+00,0.000000000000000000e+00,0.000000000000000000e+00,0.000000000000000000e+00,0.000000000000000000e+00
8.742138147354125977e-01,8.490566015243530273e-01,4.800838530063629150e-01,5.870021134614944458e-02,9.014675021171569824e-02,3.102725446224212646e-01,3.878406584262847900e-01,3.857442438602447510e-01,3.899371027946472168e-01,3.920335471630096436e-01,3.962264060974121094e-01,4.025157094001770020e-01,4.129979014396667480e-01,4.129979014396667480e-01,4.150943458080291748e-01,4.339622557163238525e-01,4.423480033874511719e-01,4.444444477558135986e-01,4.528301954269409180e-01,4.696016907691955566e-01,4.842767417430877686e-01,4.968553483486175537e-01,5.073375105857849121e-01,5.283018946647644043e-01,5.471698045730590820e-01,5.576519966125488281e-01,5.555555820465087891e-01,5.702306032180786133e-01,5.828092098236083984e-01,5.807127952575683594e-01,5.744234919548034668e-01,5.765199065208435059e-01,5.618448853492736816e-01,5.262054800987243652e-01,4.989517927169799805e-01,4.779874086380004883e-01,4.486373066902160645e-01,4.255765080451965332e-01,4.088050425052642822e-01,3.983228504657745361e-01,3.962264060974121094e-01,3.899371027946472168e-01,3.794549405574798584e-01,3.794549405574798584e-01,3.857442438602447510e-01,3.710691928863525391e-01,3.752620518207550049e-01,3.794549405574798584e-01,3.857442438602447510e-01,3.836477994918823242e-01,3.857442438602447510e-01,3.920335471630096436e-01,3.920335471630096436e-01,3.857442438602447510e-01,3.815513551235198975e-01,3.857442438602447510e-01,3.920335471630096436e-01,3.815513551235198975e-01,3.773584961891174316e-01,3.794549405574798584e-01,3.836477994918823242e-01,3.689727485179901123e-01,3.689727485179901123e-01,3.731656074523925781e-01,3.731656074523925781e-01,3.668763041496276855e-01,3.626834452152252197e-01,3.689727485179901123e-01,3.689727485179901123e-01,3.647798597812652588e-01,3.647798597812652588e-01,3.668763041496276855e-01,3.710691928863525391e-01,3.668763041496276855e-01,3.647798597812652588e-01,3.668763041496276855e-01,3.689727485179901123e-01,3.689727485179901123e-01,3.689727485179901123e-01,3.857442438602447510e-01,4.067085981369018555e-01,4.067085981369018555e-01,4.192872047424316406e-01,4.297693967819213867e-01,4.318658411502838135e-01,4.255765080451965332e-01,4.109014570713043213e-01,3.962264060974121094e-01,3.941299915313720703e-01,3.752620518207550049e-01,3.584905564785003662e-01,3.668763041496276855e-01,3.710691928863525391e-01,3.647798597812652588e-01,3.605870008468627930e-01,3.731656074523925781e-01,3.794549405574798584e-01,3.668763041496276855e-01,3.752620518207550049e-01,3.878406584262847900e-01,4.025157094001770020e-01,4.360587000846862793e-01,6.016771197319030762e-01,8.427672982215881348e-01,1.000000000000000000e+00,7.924528121948242188e-01,3.228511512279510498e-01,0.000000000000000000e+00,1.593291461467742920e-01,3.815513551235198975e-01,4.276729524135589600e-01,4.234800934791564941e-01,4.297693967819213867e-01,4.276729524135589600e-01,4.318658411502838135e-01,4.444444477558135986e-01,4.528301954269409180e-01,4.465408921241760254e-01,4.549266099929809570e-01,4.654088020324707031e-01,4.779874086380004883e-01,4.863731563091278076e-01,4.863731563091278076e-01,5.010482072830200195e-01,5.178197026252746582e-01,5.157232880592346191e-01,0.000000000000000000e+00,0.000000000000000000e+00,0.000000000000000000e+00,0.000000000000000000e+00,0.000000000000000000e+00,0.000000000000000000e+00,0.000000000000000000e+00,0.000000000000000000e+00,0.000000000000000000e+00,0.000000000000000000e+00,0.000000000000000000e+00,0.000000000000000000e+00,0.000000000000000000e+00,0.000000000000000000e+00,0.000000000000000000e+00,0.000000000000000000e+00,0.000000000000000000e+00,0.000000000000000000e+00,0.000000000000000000e+00,0.000000000000000000e+00,0.000000000000000000e+00,0.000000000000000000e+00,0.000000000000000000e+00,0.000000000000000000e+00,0.000000000000000000e+00,0.000000000000000000e+00,0.000000000000000000e+00,0.000000000000000000e+00,0.000000000000000000e+00,0.000000000000000000e+00,0.000000000000000000e+00,0.000000000000000000e+00,0.000000000000000000e+00,0.000000000000000000e+00,0.000000000000000000e+00,0.000000000000000000e+00,0.000000000000000000e+00,0.000000000000000000e+00,0.000000000000000000e+00,0.000000000000000000e+00,0.000000000000000000e+00,0.000000000000000000e+00,0.000000000000000000e+00,0.000000000000000000e+00,0.000000000000000000e+00,0.000000000000000000e+00,0.000000000000000000e+00,0.000000000000000000e+00,0.000000000000000000e+00,0.000000000000000000e+00,0.000000000000000000e+00,0.000000000000000000e+00,0.000000000000000000e+00,0.000000000000000000e+00,0.000000000000000000e+00,0.000000000000000000e+00,0.000000000000000000e+00,0.000000000000000000e+00,0.000000000000000000e+00,0.000000000000000000e+00,0.000000000000000000e+00,0.000000000000000000e+00
1.000000000000000000e+00,9.960861206054687500e-01,6.947162151336669922e-01,3.365949094295501709e-01,2.387475520372390747e-01,2.681017518043518066e-01,1.917808204889297485e-01,1.741683036088943481e-01,1.643835604190826416e-01,1.878669261932373047e-01,1.898238807916641235e-01,1.526418775320053101e-01,1.330724060535430908e-01,1.624266207218170166e-01,1.526418775320053101e-01,1.193737760186195374e-01,1.291585117578506470e-01,1.428571492433547974e-01,1.272015720605850220e-01,1.095890402793884277e-01,9.393346309661865234e-02,8.023483306169509888e-02,6.457925587892532349e-02,3.718199580907821655e-02,1.761252433061599731e-02,3.913894295692443848e-03,3.913894295692443848e-03,0.000000000000000000e+00,1.761252433061599731e-02,3.913894295692443848e-02,6.457925587892532349e-02,8.806262165307998657e-02,1.272015720605850220e-01,1.545988321304321289e-01,1.878669261932373047e-01,1.898238807916641235e-01,1.800391376018524170e-01,2.074363976716995239e-01,1.956947147846221924e-01,1.741683036088943481e-01,1.956947147846221924e-01,1.917808204889297485e-01,1.741683036088943481e-01,1.819960922002792358e-01,1.878669261932373047e-01,1.702544093132019043e-01,1.819960922002792358e-01,1.780821979045867920e-01,1.819960922002792358e-01,1.859099864959716797e-01,2.211350351572036743e-01,2.289628237485885620e-01,2.270058691501617432e-01,2.681017518043518066e-01,2.974559664726257324e-01,2.622309327125549316e-01,2.563600838184356689e-01,2.661448121070861816e-01,2.407045066356658936e-01,2.035225033760070801e-01,1.663405150175094604e-01,1.663405150175094604e-01,1.682974547147750854e-01,1.467710435390472412e-01,1.448140889406204224e-01,1.448140889406204224e-01,1.272015720605850220e-01,2.093933522701263428e-01,4.383561611175537109e-01,6.712328791618347168e-01,8.669275641441345215e-01,8.884540200233459473e-01,6.164383292198181152e-01,2.407045066356658936e-01,1.330724060535430908e-01,1.330724060535430908e-01,8.610567450523376465e-02,5.675146728754043579e-02,7.436399161815643311e-02,6.066536158323287964e-02,0.000000000000000000e+00,0.000000000000000000e+00,0.000000000000000000e+00,0.000000000000000000e+00,0.000000000000000000e+00,0.000000000000000000e+00,0.000000000000000000e+00,0.000000000000000000e+00,0.000000000000000000e+00,0.000000000000000000e+00,0.000000000000000000e+00,0.000000000000000000e+00,0.000000000000000000e+00,0.000000000000000000e+00,0.000000000000000000e+00,0.000000000000000000e+00,0.000000000000000000e+00,0.000000000000000000e+00,0.000000000000000000e+00,0.000000000000000000e+00,0.000000000000000000e+00,0.000000000000000000e+00,0.000000000000000000e+00,0.000000000000000000e+00,0.000000000000000000e+00,0.000000000000000000e+00,0.000000000000000000e+00,0.000000000000000000e+00,0.000000000000000000e+00,0.000000000000000000e+00,0.000000000000000000e+00,0.000000000000000000e+00,0.000000000000000000e+00,0.000000000000000000e+00,0.000000000000000000e+00,0.000000000000000000e+00,0.000000000000000000e+00,0.000000000000000000e+00,0.000000000000000000e+00,0.000000000000000000e+00,0.000000000000000000e+00,0.000000000000000000e+00,0.000000000000000000e+00,0.000000000000000000e+00,0.000000000000000000e+00,0.000000000000000000e+00,0.000000000000000000e+00,0.000000000000000000e+00,0.000000000000000000e+00,0.000000000000000000e+00,0.000000000000000000e+00,0.000000000000000000e+00,0.000000000000000000e+00,0.000000000000000000e+00,0.000000000000000000e+00,0.000000000000000000e+00,0.000000000000000000e+00,0.000000000000000000e+00,0.000000000000000000e+00,0.000000000000000000e+00,0.000000000000000000e+00,0.000000000000000000e+00,0.000000000000000000e+00,0.000000000000000000e+00,0.000000000000000000e+00,0.000000000000000000e+00,0.000000000000000000e+00,0.000000000000000000e+00,0.000000000000000000e+00,0.000000000000000000e+00,0.000000000000000000e+00,0.000000000000000000e+00,0.000000000000000000e+00,0.000000000000000000e+00,0.000000000000000000e+00,0.000000000000000000e+00,0.000000000000000000e+00,0.000000000000000000e+00,0.000000000000000000e+00,0.000000000000000000e+00,0.000000000000000000e+00,0.000000000000000000e+00,0.000000000000000000e+00,0.000000000000000000e+00,0.000000000000000000e+00,0.000000000000000000e+00,0.000000000000000000e+00,0.000000000000000000e+00,0.000000000000000000e+00,0.000000000000000000e+00,0.000000000000000000e+00,0.000000000000000000e+00,0.000000000000000000e+00,0.000000000000000000e+00,0.000000000000000000e+00,0.000000000000000000e+00,0.000000000000000000e+00,0.000000000000000000e+00,0.000000000000000000e+00,0.000000000000000000e+00,0.000000000000000000e+00,0.000000000000000000e+00,0.000000000000000000e+00,0.000000000000000000e+00,0.000000000000000000e+00,0.000000000000000000e+00,0.000000000000000000e+00,0.000000000000000000e+00
